#   MGF file created by MassMatrix MS data conversion tools for database search 
#   Format of MGF files:
#[Comments]
#[Query 1]
#[Query 2]
#...
#[Query N]
#
#   Format of each query:
#BEGIN IONS
#TITLE=[title of the entry]
#SCANS=[scan#]
#RTINSECONDS=[retention time in seconds]
#CHARGE=[charge state of the spectrum]
#PEPMASS=[precursor m/z value of the spectrum]
#[m/z intensity of product ion 1]
#[m/z intensity oListf product ion 2]
#...
#[m/z intensity of product ion m]
#END IONS
#
########################################
#    For more info,                    #
#    please contact hxx58@case.edu     #
#    or vist http://www.massmatrix.net #
########################################

BEGIN IONS
TITLE=C:\Users\SBI\Desktop\2018-06-07 - QE\Whole_cell_lysate_take1_0,5ul_120min.raw
SCANS=5703
RTINSECONDS=1409.04858
CHARGE=2+
PEPMASS=488.7355
69.1506 56076.9
70.0658 1626079
72.0815 1213467
72.9228 56425.9
84.0815 15852419
85.0656 73402.5
85.0849 678050.1
88.0224 90571
88.04 964915.6
88.0765 51662.5
98.0604 67445.1
99.0561 66471.6
101.108 1566778.1
102.0919 103383.6
102.1109 63347.6
112.0873 678345.6
114.1035 71804.1
115.0873 253605.3
116.017 1278197.4
127.0507 97128.2
127.0873 67539.2
129.1027 21690826
129.4234 57959.6
130.0867 12504779
130.1062 1134439.1
131.09 738766.4
133.0434 2668540.8
133.0531 107770
139.0866 93160.2
140.0822 256113.1
145.0614 240613.5
147.1132 18168748
148.1169 710998.1
154.0977 92233.6
155.082 97767.7
155.1182 710820.3
157.0974 193009.1
157.1089 1287465.6
159.0771 120368.5
165.1032 99080.3
169.109 145696
172.0728 99976.7
173.0425 53212.5
173.0559 559484.2
183.1132 564576
187.0711 121301
191.6153 76701.2
197.1036 546499.8
198.0878 277939.8
200.1405 3862091.5
200.6282 62389.3
201.1242 2046053
201.1435 323427.4
202.1269 91202
203.7342 54843.9
214.1283 543934.8
218.0596 503982.5
218.1505 25073772
219.154 2031851.5
220.1556 94949
222.638 683437.6
226.1204 80603.5
228.1351 125964.1
231.1559 441067.4
240.1229 139759.9
248.6359 1962878.9
249.1365 482636
260.107 73201.2
263.149 99127.8
265.114 59447.9
268.6335 86180.4
269.1248 320532.4
270.1479 99030.2
271.1405 124196.4
277.1468 925087.5
277.6493 296975.8
280.1423 313921.3
280.6417 55256.2
283.1512 86868.4
285.6276 134916.3
294.1421 576439.8
294.6418 69197
297.1555 132248.1
298.1418 68042.8
300.1783 120032.1
305.0928 105179.1
309.7627 55480.9
311.0874 63881.1
311.1468 405318.7
315.1684 124125.8
316.0598 102630.3
316.1519 85385.2
328.1736 1985080
329.1773 141180
333.0873 2441579.2
333.1766 985250.6
334.0915 322334.3
334.1807 93419.6
337.1533 72756.3
340.1985 267156.2
358.1177 64791.9
368.1953 135915.9
371.6523 137980.8
372.1904 127791.4
376.1288 69961.2
380.1653 124791.5
382.2191 610623.5
383.2235 99871.7
384.6821 108777.6
390.199 1295978.9
391.2043 110561.2
392.6808 92957.2
399.2474 3206021.5
400.2491 544171.8
404.1259 390012.7
406.6781 335492.4
410.2143 505950.7
411.2411 62785
426.2572 91540.1
427.2424 5124830.5
428.2457 967692.1
430.2098 189763.6
432.1581 97185.3
443.2316 322324.8
444.213 101772.4
444.2691 1001008.6
445.2703 225906.7
459.2147 236282.6
459.7144 75257.8
470.2834 100173.1
470.7273 77553.1
471.2195 285886.5
471.7202 235579.3
479.2372 353734.9
479.7303 1714556.5
480.2255 2302941.8
480.7243 716201.9
488.7364 13929694
489.2376 6991543
489.3112 157659.4
489.7394 1739411.2
496.2632 718563
532.2205 124160.2
542.2542 77326.2
550.2298 890273.6
551.2325 287499.7
559.2775 999058.7
560.2807 362839
570.2489 387954.4
587.2733 1768033.5
588.2768 508115.2
599.2745 143154.8
616.2986 771288.8
617.3098 84026.5
618.2976 77022.4
627.2676 342508.8
644.2955 1841737.1
645.2917 510038.2
646.2967 88523.7
650.3027 93289.4
651.2864 138758.8
661.3231 968138.7
662.3078 542657.8
663.3182 130160.4
668.3083 387515.8
669.3138 122279.9
670.3114 1282992.1
671.3206 311589.2
687.3372 3150203.5
688.3398 830126.6
689.3327 144379.5
700.2784 125418.3
715.332 85416.5
742.2952 2388516.2
743.2958 880057
744.2974 239230.9
759.322 15182745
760.3244 5131734
761.3253 1018058.6
763.3417 70428
802.3675 462060.9
803.3676 227628.7
813.3276 120008.5
830.3599 1075948.1
831.363 492441.6
832.3684 83578
847.3876 132758
848.3761 539625.1
849.3745 94438.8
END IONS

